Timestep,Total Energy,Kinetic Energy,Potential Energy,Temperature,Stress
0,-3351.41,13.5409,-3364.95,113.748,0
100,-3349.91,10.7608,-3360.67,109.749,0
200,-3348.9,15.93,-3364.83,109.945,0
300,-3347.41,13.2093,-3360.61,114.352,0
400,-3346.4,9.78306,-3356.19,106.874,0
500,-3344.9,12.453,-3357.36,102.507,0
600,-3343.9,10.9381,-3354.84,104.591,0
700,-3342.4,17.097,-3359.5,107.98,0
800,-3341.41,18.8904,-3360.3,120.204,0
900,-3339.91,17.0879,-3357,126.693,0
1000,-3338.91,14.1431,-3353.05,127.107,0
1100,-3337.41,20.6438,-3358.05,128.854,0
1200,-3336.41,22.4261,-3358.83,142.135,0
1300,-3334.9,21.5537,-3356.46,148.94,0
1400,-3333.9,16.1675,-3350.07,151.809,0
1500,-3332.4,20.0775,-3352.48,151.574,0
1600,-3331.4,12.904,-3344.3,144.254,0
1700,-3329.9,22.0116,-3351.92,144.599,0
1800,-3328.9,23.4892,-3352.39,163.392,0
1900,-3327.41,21.0519,-3348.46,168.852,0
2000,-3326.41,31.7148,-3358.12,184.43,0
2100,-3324.91,17.3637,-3342.27,183.978,0
2200,-3323.91,26.0028,-3349.91,185.919,0
2300,-3322.4,29.4238,-3351.83,196.423,0
2400,-3321.4,30.4704,-3351.87,210.149,0
2500,-3319.9,23.6926,-3343.59,210.797,0
2600,-3318.9,18.1782,-3337.08,197.775,0
2700,-3317.4,20.2887,-3337.69,193.032,0
2800,-3316.4,27.1453,-3343.55,193.826,0
2900,-3314.9,34.1398,-3349.04,211.406,0
3000,-3313.91,34.9706,-3348.88,227.439,0
3100,-3312.41,33.0874,-3345.49,233.788,0
3200,-3311.41,35.4418,-3346.85,241.372,0
3300,-3309.91,26.2557,-3336.16,241.814,0
3400,-3308.9,37.7675,-3346.67,255.654,0
3500,-3307.4,37.349,-3344.75,266.013,0
3600,-3306.4,21.9906,-3328.39,258.128,0
3700,-3304.9,27.0622,-3331.96,255.502,0
3800,-3303.9,30.0635,-3333.96,258.361,0
3900,-3302.4,31.7543,-3334.16,258.905,0
4000,-3301.4,39.2568,-3340.66,263.56,0
4100,-3299.91,32.7914,-3332.7,280.43,0
4200,-3298.91,37.0828,-3335.99,296.111,0
4300,-3297.41,39.6924,-3337.1,290.79,0
4400,-3296.41,40.2429,-3336.65,312.226,0
4500,-3294.9,47.5083,-3342.41,314.913,0
4600,-3293.9,38.3228,-3332.23,317.79,0
4700,-3292.4,33.6301,-3326.03,318.704,0
4800,-3291.4,29.8806,-3321.28,306.211,0
4900,-3289.9,35.5316,-3325.43,300.671,0
5000,-3288.9,34.0838,-3322.98,298.334,0
5100,-3287.4,41.6393,-3329.04,309.54,0
5200,-3286.4,53.3592,-3339.76,322.366,0
5300,-3284.9,45.511,-3330.42,347.62,0
5400,-3283.91,36.7649,-3320.67,358.281,0
5500,-3282.41,59.961,-3342.37,341.768,0
5600,-3281.4,36.0214,-3317.42,379.499,0
5700,-3279.9,64.028,-3343.93,390.836,0
5800,-3278.9,33.3087,-3312.21,385.424,0
5900,-3277.4,34.2735,-3311.67,371.106,0
6000,-3276.4,39.1256,-3315.52,352.27,0
6100,-3274.9,40.0837,-3314.98,349.008,0
6200,-3273.9,44.9732,-3318.87,343.74,0
6300,-3272.4,56.4773,-3328.88,376.223,0
6400,-3271.4,57.6567,-3329.06,397.34,0
6500,-3269.91,53.8752,-3323.78,412.264,0
6600,-3268.9,43.4925,-3312.4,406.789,0
6700,-3267.4,51.7482,-3319.15,410.333,0
6800,-3266.4,65.1702,-3331.57,439.082,0
6900,-3264.9,58.9291,-3323.83,447.707,0
7000,-3263.9,51.9941,-3315.89,447.27,0
7100,-3262.4,36.4698,-3298.87,449.927,0
7200,-3261.39,32.9076,-3294.3,408.246,0
7300,-3259.9,42.7443,-3302.64,392.929,0
7400,-3258.9,61.5736,-3320.47,400.619,0
7500,-3257.4,61.5915,-3318.99,436.72,0
7600,-3256.41,69.6153,-3326.02,459.742,0
7700,-3254.91,63.8308,-3318.74,465.926,0
7800,-3253.9,56.4601,-3310.36,463.131,0
7900,-3252.4,59.4295,-3311.83,495.016,0
8000,-3251.4,57.7754,-3309.18,497.918,0
8100,-3249.9,53.2437,-3303.14,492.855,0
8200,-3248.89,56.1487,-3305.04,483.185,0
8300,-3247.4,46.9154,-3294.31,484.981,0
8400,-3246.4,52.6925,-3299.09,466.396,0
8500,-3244.9,55.7965,-3300.7,462.023,0
8600,-3243.9,67.4662,-3311.37,482.672,0
8700,-3242.4,67.4272,-3309.83,497.759,0
8800,-3241.4,62.6111,-3304.01,512.133,0
8900,-3239.9,71.3192,-3311.22,532.609,0
9000,-3238.9,66.2493,-3305.15,538.648,0
9100,-3237.4,73.723,-3311.12,541.882,0
9200,-3236.4,61.2582,-3297.66,537.021,0
9300,-3234.9,69.3546,-3304.25,547.188,0
9400,-3233.89,56.1069,-3290,542.086,0
9500,-3232.4,61.5136,-3293.91,535.252,0
9600,-3231.4,60.5332,-3291.93,513.495,0
9700,-3229.9,77.5422,-3307.44,518.674,0
9800,-3228.9,78.8534,-3307.75,551.461,0
9900,-3227.4,64.9957,-3292.4,552.424,0
10000,-3226.4,92.031,-3318.43,587.064,0
10100,-3224.9,72.0759,-3296.98,593.211,0
10200,-3223.9,67.3437,-3291.24,580.18,0
10300,-3222.4,72.7621,-3295.16,587.871,0
10400,-3221.39,65.2103,-3286.6,598.353,0
10500,-3219.9,73.9733,-3293.87,593.63,0
10600,-3218.89,70.4423,-3289.34,593.703,0
10700,-3217.39,58.6103,-3276,584.411,0
10800,-3216.39,60.6989,-3277.09,576.93,0
10900,-3214.9,77.9522,-3292.85,584.538,0
11000,-3213.9,87.8246,-3301.72,605.295,0
11100,-3212.4,83.2089,-3295.61,628.65,0
11200,-3211.4,61.745,-3273.14,635.688,0
11300,-3209.9,81.5062,-3291.41,647.976,0
11400,-3208.9,90.2981,-3299.19,654.996,0
11500,-3207.4,77.0149,-3284.41,661.87,0
11600,-3206.4,82.9208,-3289.32,678.679,0
11700,-3204.89,55.4018,-3260.29,653.889,0
11800,-3203.89,72.1298,-3276.02,628.429,0
11900,-3202.39,77.0572,-3279.45,627.879,0
12000,-3201.39,86.773,-3288.17,642.587,0
12100,-3199.9,69.8191,-3269.72,643.443,0
12200,-3198.9,92.8735,-3291.77,656.365,0
12300,-3197.39,78.4676,-3275.86,677.649,0
12400,-3196.4,90.1812,-3286.58,670.549,0
12500,-3194.9,82.0822,-3276.98,683.444,0
12600,-3193.89,76.2747,-3270.17,668.483,0
12700,-3192.39,82.7813,-3275.17,667.265,0
12800,-3191.39,91.7133,-3283.11,672.39,0
12900,-3189.89,79.8656,-3269.76,673.618,0
13000,-3188.89,82.5044,-3271.4,679.369,0
13100,-3187.39,88.8922,-3276.29,688.722,0
13200,-3186.39,88.6124,-3275.01,699.664,0
13300,-3184.89,75.1685,-3260.06,711.295,0
13400,-3183.9,90.8614,-3274.76,708.306,0
13500,-3182.39,87.2838,-3269.68,701.347,0
13600,-3181.39,81.3745,-3262.77,708.896,0
13700,-3179.89,99.7725,-3279.66,731.838,0
13800,-3178.89,89.549,-3268.44,734.917,0
13900,-3177.39,98.3422,-3275.74,741.755,0
14000,-3176.39,100.297,-3276.69,750.687,0
14100,-3174.89,91.4619,-3266.35,761.093,0
14200,-3173.9,89.4521,-3263.35,763.005,0
14300,-3172.39,102.382,-3274.78,767.194,0
14400,-3171.39,91.8411,-3263.24,788.118,0
14500,-3169.89,95.7332,-3265.63,765.67,0
14600,-3168.89,71.2107,-3240.1,758.692,0
14700,-3167.39,91.3011,-3258.69,753.426,0
14800,-3166.39,95.7528,-3262.14,752.317,0
14900,-3164.89,74.8579,-3239.75,755.452,0
15000,-3163.89,98.1685,-3262.06,763.26,0
15100,-3162.39,79.5429,-3241.93,749.592,0
15200,-3161.39,94.6075,-3256,762.226,0
15300,-3159.89,91.7485,-3251.64,763.93,0
15400,-3158.89,83.8898,-3242.78,754.515,0
15500,-3157.39,100.555,-3257.94,755.708,0
15600,-3156.39,89.5024,-3245.89,771.366,0
15700,-3154.89,97.9339,-3252.83,770.833,0
15800,-3153.89,99.1691,-3253.06,793.294,0
15900,-3152.39,104.616,-3257.01,803.141,0
16000,-3151.39,96.9744,-3248.37,811.399,0
16100,-3149.89,103.016,-3252.91,811.608,0
16200,-3148.89,96.6112,-3245.5,817.788,0
16300,-3147.39,96.594,-3243.98,817.489,0
16400,-3146.39,99.8762,-3246.26,819.889,0
16500,-3144.89,96.9447,-3241.83,817.925,0
16600,-3143.89,92.9952,-3236.88,809.784,0
16700,-3142.39,94.1081,-3236.5,807.873,0
16800,-3141.39,101.061,-3242.45,812.4,0
16900,-3139.89,101.53,-3241.42,814.894,0
17000,-3138.89,105.509,-3244.4,828.917,0
17100,-3137.39,104.621,-3242.01,837.854,0
17200,-3136.39,103.274,-3239.66,847.626,0
17300,-3134.89,107.797,-3242.69,855.432,0
17400,-3133.89,103.467,-3237.36,860.316,0
17500,-3132.39,103.79,-3236.18,868.586,0
17600,-3131.39,103.511,-3234.9,871.541,0
17700,-3129.89,103.143,-3233.03,864.816,0
17800,-3128.89,103.645,-3232.53,865.035,0
17900,-3127.39,103.458,-3230.85,864.379,0
18000,-3126.39,100.23,-3226.62,863.208,0
18100,-3124.89,105.956,-3230.84,863.749,0
18200,-3123.89,107.459,-3231.35,874.188,0
18300,-3122.39,111.21,-3233.6,882.833,0
18400,-3121.39,106.318,-3227.71,891.611,0
18500,-3119.89,100.449,-3220.34,888.007,0
18600,-3118.89,111.017,-3229.9,889.509,0
18700,-3117.39,108.715,-3226.1,894.949,0
18800,-3116.39,104.426,-3220.81,893.975,0
18900,-3114.89,108.053,-3222.94,893.797,0
19000,-3113.89,105.789,-3219.68,898.352,0
19100,-3112.39,108.499,-3220.89,895.349,0
19200,-3111.39,110.064,-3221.45,900.036,0
19300,-3109.89,109.963,-3219.85,900.017,0
19400,-3108.89,108.227,-3217.11,902.727,0
19500,-3107.39,108.317,-3215.7,904.887,0
19600,-3106.39,105.089,-3211.48,905.187,0
19700,-3104.89,109.27,-3214.16,905.916,0
19800,-3103.89,107.852,-3211.74,908.624,0
19900,-3102.39,108.133,-3210.52,908.542,0
20000,-3101.38,110.94,-3212.32,909.201,0
20100,-3099.88,107.361,-3207.25,909.009,0
20200,-3098.88,106.926,-3205.81,908.209,0
20300,-3097.38,109.76,-3207.14,909.399,0
20400,-3096.38,108.188,-3204.57,909.458,0
20500,-3094.88,108.818,-3203.7,911.84,0
20600,-3093.88,111.332,-3205.22,913.602,0
20700,-3092.38,110.77,-3203.15,916.257,0
20800,-3091.38,115.593,-3206.98,921.886,0
20900,-3089.88,111.794,-3201.68,925.984,0
21000,-3088.88,114.285,-3203.17,931.803,0
21100,-3087.38,117.13,-3204.51,939.563,0
21200,-3086.38,114.263,-3200.65,947.753,0
21300,-3084.88,114.486,-3199.37,951.393,0
21400,-3083.88,116.879,-3200.76,955.592,0
21500,-3082.38,112.408,-3194.79,958.719,0
21600,-3081.38,115.159,-3196.54,954.9,0
21700,-3079.88,116.63,-3196.51,955.596,0
21800,-3078.88,115.164,-3194.05,959.422,0
21900,-3077.38,114.006,-3191.39,957.567,0
22000,-3076.38,117.549,-3193.93,961.309,0
22100,-3074.88,114.743,-3189.63,961.839,0
22200,-3073.88,116.645,-3190.53,964.37,0
22300,-3072.38,118.069,-3190.45,964.656,0
22400,-3071.38,114.787,-3186.17,968.255,0
22500,-3069.88,114.737,-3184.62,967.546,0
22600,-3068.88,119.544,-3188.43,973.599,0
22700,-3067.38,117.214,-3184.6,976.958,0
22800,-3066.38,114.867,-3181.25,976.152,0
22900,-3064.88,113.459,-3178.34,972.368,0
23000,-3063.88,114.473,-3178.35,971.176,0
23100,-3062.38,118.127,-3180.51,970.265,0
23200,-3061.38,115.195,-3176.58,969.331,0
23300,-3059.88,115.186,-3175.07,965.549,0
23400,-3058.88,112.311,-3171.19,962.723,0
23500,-3057.38,116.292,-3173.67,962.247,0
23600,-3056.38,114.21,-3170.59,962.9,0
23700,-3054.88,115.12,-3170,960.999,0
23800,-3053.88,123.511,-3177.39,969.978,0
23900,-3052.38,117.975,-3170.36,978.754,0
24000,-3051.38,121.709,-3173.09,986.136,0
24100,-3049.88,115.933,-3165.81,985.675,0
24200,-3048.88,118.882,-3167.76,987.557,0
24300,-3047.38,119.24,-3166.62,988.988,0
24400,-3046.38,113.527,-3159.9,986.053,0
24500,-3044.88,116.847,-3161.73,983.596,0
24600,-3043.88,113.774,-3157.65,979.351,0
24700,-3042.38,112.763,-3155.14,976.506,0
24800,-3041.38,120.348,-3161.73,977.973,0
24900,-3039.88,118.402,-3158.28,980.837,0
25000,-3038.88,122.202,-3161.08,986.242,0
25100,-3037.38,122.811,-3160.19,993.938,0
25200,-3036.38,125.208,-3161.59,1002.93,0
25300,-3034.88,125.566,-3160.45,1011.11,0
25400,-3033.88,124.327,-3158.21,1020.05,0
25500,-3032.38,126.9,-3159.28,1031.32,0
25600,-3031.38,125.847,-3157.23,1038.01,0
25700,-3029.88,123.328,-3153.21,1037.93,0
25800,-3028.88,124.932,-3153.81,1039.58,0
25900,-3027.38,124.718,-3152.1,1041.1,0
26000,-3026.38,122.534,-3148.91,1038.41,0
26100,-3024.88,123.749,-3148.63,1039.03,0
26200,-3023.88,126.033,-3149.91,1043.29,0
26300,-3022.38,128.377,-3150.75,1045.62,0
26400,-3021.38,125.754,-3147.13,1052.53,0
26500,-3019.88,128.747,-3148.62,1052.68,0
26600,-3018.88,129.759,-3148.64,1061.46,0
26700,-3017.38,125.336,-3142.71,1055.85,0
26800,-3016.38,130.202,-3146.58,1061.21,0
26900,-3014.88,130.332,-3145.21,1067.69,0
27000,-3013.88,129.053,-3142.93,1072.12,0
27100,-3012.38,129.184,-3141.56,1074.04,0
27200,-3011.38,122.922,-3134.3,1069.94,0
27300,-3009.87,129.186,-3139.06,1067.33,0
27400,-3008.87,127.342,-3136.22,1070.14,0
27500,-3007.38,127.01,-3134.39,1071.53,0
27600,-3006.38,129.485,-3135.86,1071.29,0
27700,-3004.88,134.309,-3139.18,1079.14,0
27800,-3003.88,136.783,-3140.66,1091.8,0
27900,-3002.38,133.819,-3136.19,1103.66,0
28000,-3001.38,133.943,-3135.32,1112.75,0
28100,-2999.88,131.9,-3131.78,1115.68,0
28200,-2998.87,130.401,-3129.28,1109.69,0
28300,-2997.37,136.08,-3133.45,1112.14,0
28400,-2996.37,137.645,-3134.02,1118.71,0
28500,-2994.87,137.033,-3131.91,1124.19,0
28600,-2993.87,134.813,-3128.69,1127.83,0
28700,-2992.37,134.767,-3127.14,1131.48,0
28800,-2991.37,136.538,-3127.91,1136.29,0
28900,-2989.87,134.819,-3124.69,1140.71,0
29000,-2988.87,142.849,-3131.72,1147.09,0
29100,-2987.37,143.941,-3131.32,1153.4,0
29200,-2986.37,139.474,-3125.85,1160.27,0
29300,-2984.87,141.477,-3126.35,1163.11,0
29400,-2983.87,140.188,-3124.06,1168.48,0
29500,-2982.37,144.455,-3126.83,1175.73,0
29600,-2981.37,140.898,-3122.27,1178.31,0
29700,-2979.87,139.11,-3118.98,1177.29,0
29800,-2978.87,146.481,-3125.35,1181.05,0
29900,-2977.37,139.918,-3117.29,1181.64,0
30000,-2976.37,138.589,-3114.96,1175.68,0
30100,-2974.87,142.39,-3117.26,1180.09,0
30200,-2973.87,138.02,-3111.89,1179.63,0
30300,-2972.37,140.959,-3113.33,1181.14,0
30400,-2971.37,145.192,-3116.56,1182.84,0
30500,-2969.87,141.32,-3111.19,1183.52,0
30600,-2968.87,147.654,-3116.53,1198.88,0
30700,-2967.37,151.531,-3118.9,1207.73,0
30800,-2966.37,146.898,-3113.27,1217.11,0
30900,-2964.87,150.414,-3115.29,1228.67,0
31000,-2963.87,149.445,-3113.32,1235.5,0
31100,-2962.37,148.326,-3110.7,1235.49,0
31200,-2961.37,151.787,-3113.16,1242.66,0
31300,-2959.87,151.448,-3111.32,1251.08,0
31400,-2958.87,153.066,-3111.94,1256.36,0
31500,-2957.37,153.077,-3110.45,1255.41,0
31600,-2956.37,146.965,-3103.34,1256.26,0
31700,-2954.87,152.436,-3107.31,1256.78,0
31800,-2953.87,154.739,-3108.61,1266.12,0
31900,-2952.37,148.496,-3100.87,1269.84,0
32000,-2951.37,152.129,-3103.5,1272.98,0
32100,-2949.87,155.579,-3105.45,1278.05,0
32200,-2948.87,149.534,-3098.4,1276.17,0
32300,-2947.37,156.933,-3104.3,1282.65,0
32400,-2946.37,156.808,-3103.18,1293.6,0
32500,-2944.87,151.932,-3096.8,1296.01,0
32600,-2943.87,150.56,-3094.43,1288.19,0
32700,-2942.37,152.423,-3094.79,1285.21,0
32800,-2941.37,156.422,-3097.79,1285.59,0
32900,-2939.87,154.628,-3094.5,1287.62,0
33000,-2938.87,160.61,-3099.48,1298.76,0
33100,-2937.37,156.864,-3094.23,1301.3,0
33200,-2936.37,154.003,-3090.37,1299.15,0
33300,-2934.87,151.318,-3086.19,1296.59,0
33400,-2933.87,153.594,-3087.46,1293.24,0
33500,-2932.37,158.99,-3091.36,1292.56,0
33600,-2931.37,158.499,-3089.87,1303.02,0
33700,-2929.87,159.134,-3089,1306.28,0
33800,-2928.87,156.71,-3085.58,1311.67,0
33900,-2927.37,158.049,-3085.42,1310.2,0
34000,-2926.37,164.766,-3091.13,1319.69,0
34100,-2924.87,162.573,-3087.44,1321.35,0
34200,-2923.87,157.799,-3081.67,1331.85,0
34300,-2922.37,160.624,-3082.99,1338.19,0
34400,-2921.37,165.552,-3086.92,1344.93,0
34500,-2919.87,161.381,-3081.25,1350.48,0
34600,-2918.87,161.495,-3080.36,1355.61,0
34700,-2917.37,171.562,-3088.93,1363.16,0
34800,-2916.37,167.19,-3083.56,1375.76,0
34900,-2914.87,169.108,-3083.97,1385.19,0
35000,-2913.87,169.232,-3083.1,1394.66,0
35100,-2912.37,164.369,-3076.73,1394.93,0
35200,-2911.37,166.468,-3077.83,1396.05,0
35300,-2909.86,156.915,-3066.78,1390.09,0
35400,-2908.86,166.52,-3075.38,1386.45,0
35500,-2907.36,166.509,-3073.87,1387.82,0
35600,-2906.36,161.96,-3068.32,1387.16,0
35700,-2904.86,166.282,-3071.15,1386.83,0
35800,-2903.86,166.683,-3070.55,1387.22,0
35900,-2902.36,169.49,-3071.85,1389.85,0
36000,-2901.36,165.658,-3067.02,1391.01,0
36100,-2899.86,166.284,-3066.15,1397.26,0
36200,-2898.86,167.9,-3066.76,1398.29,0
36300,-2897.36,178.451,-3075.82,1408.66,0
36400,-2896.36,172.075,-3068.44,1418.05,0
36500,-2894.87,174.426,-3069.29,1422.08,0
36600,-2893.86,169.33,-3063.19,1426.65,0
36700,-2892.36,177.547,-3069.91,1430.68,0
36800,-2891.36,172.923,-3064.29,1438.14,0
36900,-2889.86,175.748,-3065.61,1445.37,0
37000,-2888.86,177.893,-3066.76,1454.58,0
37100,-2887.36,176.722,-3064.09,1459.53,0
37200,-2886.36,176.583,-3062.95,1468.15,0
37300,-2884.86,177.131,-3061.99,1470.77,0
37400,-2883.86,177.965,-3061.83,1476.95,0
37500,-2882.36,174.407,-3056.77,1476.91,0
37600,-2881.36,174.851,-3056.21,1478.23,0
37700,-2879.86,179.056,-3058.92,1476.83,0
37800,-2878.86,183.307,-3062.17,1490.44,0
37900,-2877.36,184.038,-3061.4,1499.48,0
38000,-2876.36,177.949,-3054.31,1506,0
38100,-2874.86,178.69,-3053.55,1504.14,0
38200,-2873.86,184.11,-3057.97,1508.03,0
38300,-2872.36,184.306,-3056.67,1513.41,0
38400,-2871.36,183.656,-3055.02,1521.33,0
38500,-2869.86,182.498,-3052.36,1527.3,0
38600,-2868.86,182.333,-3051.19,1527.16,0
38700,-2867.36,187.316,-3054.68,1537.54,0
38800,-2866.36,186.955,-3053.32,1540.62,0
38900,-2864.86,187.57,-3052.43,1545.72,0
39000,-2863.86,185.794,-3049.66,1546.55,0
39100,-2862.36,180.879,-3043.24,1541.45,0
39200,-2861.36,186.866,-3048.23,1539.44,0
39300,-2859.86,191.856,-3051.72,1542.31,0
39400,-2858.86,175.602,-3034.46,1546.32,0
39500,-2857.36,182.8,-3040.16,1539.94,0
39600,-2856.36,175.798,-3032.16,1537.01,0
39700,-2854.86,184.752,-3039.61,1534.83,0
39800,-2853.86,189.203,-3043.06,1539.91,0
39900,-2852.36,192.667,-3045.03,1553.35,0
40000,-2851.36,188.633,-3039.99,1563.17,0
40100,-2849.86,189.847,-3039.71,1566.83,0
40200,-2848.86,196.182,-3045.04,1581.33,0
40300,-2847.36,190.739,-3038.1,1586.05,0
40400,-2846.36,192.294,-3038.65,1586.98,0
40500,-2844.86,195.993,-3040.85,1592.67,0
40600,-2843.86,196.707,-3040.56,1600.59,0
40700,-2842.36,192.027,-3034.38,1610.02,0
40800,-2841.36,195.691,-3037.05,1616.94,0
40900,-2839.86,191.609,-3031.47,1618.67,0
41000,-2838.86,192.362,-3031.22,1618.5,0
41100,-2837.36,191.3,-3028.66,1620.74,0
41200,-2836.36,193.515,-3029.87,1621.56,0
41300,-2834.86,198.066,-3032.92,1623,0
41400,-2833.86,194.934,-3028.79,1628.48,0
41500,-2832.36,194.805,-3027.16,1627.58,0
41600,-2831.36,199.185,-3030.54,1631.69,0
41700,-2829.86,204.991,-3034.85,1637.27,0
41800,-2828.86,196.406,-3025.26,1649.14,0
41900,-2827.36,202.25,-3029.61,1652.17,0
42000,-2826.36,197.785,-3024.14,1657.2,0
42100,-2824.86,195.098,-3019.95,1658.27,0
42200,-2823.86,199.482,-3023.34,1655.18,0
42300,-2822.36,197.692,-3020.05,1658.25,0
42400,-2821.36,196.016,-3017.37,1652.15,0
42500,-2819.86,197.633,-3017.49,1650.75,0
42600,-2818.86,201.162,-3020.02,1659.9,0
42700,-2817.36,203.466,-3020.82,1664.56,0
42800,-2816.36,208.238,-3024.6,1676.35,0
42900,-2814.86,204.206,-3019.06,1678.78,0
43000,-2813.86,204.924,-3018.78,1691.17,0
43100,-2812.36,203.043,-3015.4,1691.25,0
43200,-2811.36,203.873,-3015.23,1698.26,0
43300,-2809.85,202.367,-3012.22,1703.91,0
43400,-2808.86,205.609,-3014.47,1713.95,0
43500,-2807.36,213.699,-3021.06,1721.17,0
43600,-2806.36,211.092,-3017.45,1743.38,0
43700,-2804.86,211.413,-3016.27,1750.76,0
43800,-2803.86,209.156,-3013.01,1754.91,0
43900,-2802.36,205.821,-3008.18,1754.7,0
44000,-2801.35,207.036,-3008.39,1752.23,0
44100,-2799.85,211.057,-3010.91,1754.92,0
44200,-2798.85,206.594,-3005.45,1758.28,0
44300,-2797.35,212.226,-3009.58,1757.5,0
44400,-2796.35,208.052,-3004.41,1759.59,0
44500,-2794.85,218.424,-3013.28,1767,0
44600,-2793.85,217.313,-3011.17,1774.33,0
44700,-2792.35,212.429,-3004.78,1776.14,0
44800,-2791.35,208.391,-2999.74,1776.91,0
44900,-2789.85,210.598,-3000.45,1772.43,0
45000,-2788.85,217.883,-3006.74,1771.48,0
45100,-2787.35,209.167,-2996.52,1770.1,0
45200,-2786.35,214.317,-3000.67,1767.71,0
45300,-2784.85,218.445,-3003.3,1777.53,0
45400,-2783.85,215.742,-2999.59,1784.06,0
45500,-2782.35,224.871,-3007.22,1795.87,0
45600,-2781.35,217.313,-2998.66,1809.11,0
45700,-2779.85,214.46,-2994.31,1810.72,0
45800,-2778.85,217.058,-2995.91,1813.78,0
45900,-2777.35,213.992,-2991.34,1809.82,0
46000,-2776.35,216.711,-2993.06,1815.67,0
46100,-2774.85,216.576,-2991.43,1815.93,0
46200,-2773.85,214.797,-2988.65,1810.03,0
46300,-2772.35,220.535,-2992.89,1813.87,0
46400,-2771.35,218.234,-2989.59,1818.45,0
46500,-2769.85,214.922,-2984.77,1819.17,0
46600,-2768.85,221.875,-2990.73,1826.26,0
46700,-2767.35,224.118,-2991.47,1831.17,0
46800,-2766.35,225.378,-2991.73,1844.49,0
46900,-2764.85,227.1,-2991.95,1860.64,0
47000,-2763.85,232.2,-2996.05,1868.85,0
47100,-2762.35,231.955,-2994.31,1883.91,0
47200,-2761.35,230.376,-2991.73,1897.03,0
47300,-2759.85,232.443,-2992.29,1905.63,0
47400,-2758.85,220.892,-2979.74,1909.09,0
47500,-2757.35,224.654,-2982,1903.84,0
47600,-2756.35,228.776,-2985.13,1905.68,0
47700,-2754.85,222.336,-2977.19,1905.41,0
47800,-2753.85,228.828,-2982.68,1902.78,0
47900,-2752.35,224.663,-2977.01,1898.54,0
48000,-2751.35,229.009,-2980.36,1902.77,0
48100,-2749.85,225.763,-2975.61,1906.9,0
48200,-2748.85,232.002,-2980.85,1911.66,0
